36,,
Wavelength (nm),Abs,
649.9767456,0.009868950583,
648.953125,0.01022844575,
647.9291992,0.01006935164,
647.0513306,0.01008755341,
646.0268555,0.009790839627,
645.0020752,0.009919743985,
643.9769897,0.009921730496,
642.9515991,0.009595092386,
642.0724487,0.0100126341,
641.0465088,0.01013495401,
640.0202637,0.01068724133,
638.9937134,0.01010949071,
637.9668579,0.009988343343,
636.9396973,0.01010853704,
636.059021,0.009999071248,
635.031311,0.009930364788,
634.0032959,0.0101018073,
632.9749756,0.009866381995,
631.9463501,0.009997853078,
631.0643921,0.009869242087,
630.0352173,0.009722138755,
629.0057983,0.009911798872,
627.9760132,0.009670204483,
626.9459229,0.009640083648,
626.0628052,0.009557858109,
625.0321655,0.00933021307,
624.0012817,0.009175703861,
622.9700928,0.009247570299,
621.9385986,0.00967001915,
621.0541992,0.009174329229,
620.0221558,0.00937911775,
618.9898071,0.009591122158,
617.9572144,0.009749459103,
617.0718384,0.009630661458,
616.0386963,0.009494407102,
615.005249,0.009945937432,
613.9714966,0.009441203438,
612.937439,0.009565744549,
612.0509033,0.009586756118,
611.0162964,0.009659219533,
609.9814453,0.009805348702,
608.9462891,0.009765052237,
608.0587769,0.009952214547,
607.0231323,0.009969696403,
605.9871216,0.009760075249,
604.9508667,0.009901868179,
604.062439,0.009914897382,
603.0256348,0.009889050387,
601.9885864,0.00996294152,
600.9511719,0.009997349232,
600.0618286,0.009939051233,
599.0239258,0.0100949984,
597.9857788,0.01034406666,
596.9473267,0.01035178173,
596.0569458,0.01024410967,
595.0180054,0.01013818663,
593.9787598,0.01007944625,
592.939209,0.009948586114,
592.0479736,0.01016706973,
591.0078735,0.0103234956,
589.9675293,0.01022887044,
588.9269409,0.0104655521,
588.03479,0.01042421348,
586.9936523,0.01016892493,
585.9522095,0.01019269507,
585.0593872,0.01031435002,
584.0174561,0.01040000655,
582.9752808,0.01017777529,
581.9328003,0.01039653365,
581.0390015,0.01033876464,
579.9960327,0.0104004303,
578.9527588,0.01063993853,
578.0583496,0.01036954392,
577.0145874,0.01074335724,
575.97052,0.01063184813,
574.9262085,0.01059964485,
574.0308838,0.01088621467,
572.986084,0.01065036468,
571.940979,0.01073515788,
571.0449829,0.01071746089,
569.9993896,0.01067652274,
568.9535522,0.01077113952,
568.0568848,0.01116867177,
567.0105591,0.01095215324,
565.9639282,0.0108992476,
565.0665894,0.01086689252,
564.0194702,0.01094689686,
562.9721069,0.01087525301,
562.0741577,0.01101520658,
561.0262451,0.0108463224,
559.9781494,0.01076063141,
558.9297485,0.01115996018,
558.0308838,0.01105338894,
556.9819946,0.01098464802,
555.9328003,0.01132357214,
555.0333252,0.01089205407,
553.9837036,0.01121459715,
552.9337769,0.01130005904,
552.0336304,0.01113454346,
550.9832764,0.01116867177,
549.9326172,0.01131323725,
549.0318604,0.01095998473,
547.9807129,0.01130787004,
546.9293213,0.01119074412,
546.0278931,0.01098069176,
544.9760742,0.01138668042,
544.0742188,0.01133077312,
543.0219116,0.01131382119,
541.9692993,0.01104757376,
541.0668335,0.0108956378,
540.0137939,0.01101310924,
538.9604492,0.01113634929,
538.057373,0.01138715819,
537.00354,0.01138402335,
535.9495239,0.01105267182,
535.0458374,0.01134371292,
533.991272,0.01141750719,
532.9365234,0.01131432597,
532.0321655,0.01122583356,
530.9769287,0.01111117285,
530.0722656,0.01132431626,
529.0165405,0.01131716929,
527.9605713,0.01111813076,
527.0552368,0.01116707828,
525.9988403,0.01119432971,
524.9421387,0.01110009849,
524.0361938,0.01071159728,
522.9790649,0.01087628771,
522.0727539,0.01063784305,
521.0151978,0.01078844164,
519.9573364,0.01019282732,
519.050415,0.009754647501,
517.9921265,0.009357269853,
516.9335938,0.008651952259,
516.026062,0.008325289935,
514.967041,0.007927504368,
514.0591431,0.008071574382,
512.9996948,0.008100214414,
511.940033,0.008583511226,
511.0315247,0.008668879047,
509.9713745,0.009132055566,
509.0625,0.009530736133,
508.0019226,0.009676001035,
506.9411011,0.01032148115,
506.0316162,0.01061086543,
504.9703674,0.01081224624,
504.0605164,0.01066622883,
502.9988098,0.01098220516,
501.9368591,0.01126313023,
501.0264282,0.0112886345,
499.9640198,0.01115366537,
499.0532227,0.01133977994,
497.990387,0.0112228049,
496.9273376,0.01123008318,
496.0159607,0.01136685722,
494.9524536,0.01123409439,
494.0407104,0.01127136592,
492.9767761,0.01148230303,
492.0646362,0.01102179103,
491.0002747,0.01093372982,
489.9356689,0.01097548846,
489.0229797,0.01107171085,
487.9579468,0.01074943412,
487.0448914,0.0106001487,
485.9794617,0.01064537745,
485.0660095,0.01089075394,
484.0001526,0.01075715572,
482.934021,0.01062542852,
482.02005,0.01082339231,
480.9535217,0.01120168716,
480.0391541,0.01161545981,
478.972229,0.01226606779,
478.0574951,0.01299318112,
476.9901428,0.01354983822,
476.0750732,0.0141954897,
475.0072632,0.0152446134,
473.93927,0.01662011631,
473.0236511,0.0179701224,
471.9552307,0.01951163262,
471.0392456,0.02079452015,
469.9703979,0.02308015339,
469.0540771,0.02553491294,
467.9848328,0.02923830785,
467.0681458,0.03216044232,
465.9984741,0.03598662093,
464.9285889,0.04040606692,
464.0113831,0.04493261129,
462.9410706,0.05246810243,
462.0234985,0.0592396073,
460.9528198,0.06805488467,
460.0349121,0.07464201003,
458.9638062,0.08454338461,
458.0455322,0.09757740796,
456.9740295,0.1110088527,
456.0554199,0.1241637096,
454.9835205,0.1389300078,
454.0645752,0.1527326703,
452.9922791,0.1732664108,
452.072998,0.1911296546,
451.0003052,0.2126197368,
449.9273682,0.2351846099,
449.0075684,0.2520775199,
447.9342651,0.2717927396,
447.0141296,0.288549602,
445.9404297,0.3008828759,
445.019928,0.3092781603,
443.9458618,0.3118712008,
443.0250244,0.3091126084,
441.9505615,0.3017421961,
441.0294189,0.2922999561,
439.9545288,0.2800108492,
439.0330505,0.2686740458,
437.9577942,0.2560918331,
437.0360107,0.2464027703,
435.9603577,0.2355740517,
435.0382385,0.226891011,
433.9622192,0.2172589898,
433.0397339,0.2101576924,
431.9633484,0.2020419836,
431.0405579,0.1944788545,
429.9637756,0.185898453,
429.0406494,0.1782522798,
427.963501,0.170827657,
427.0400696,0.1656486839,
425.9625549,0.1594429463,
425.0387878,0.1544453204,
423.9608765,0.1499946415,
423.0368042,0.1473558396,
421.9585571,0.1449144036,
421.0341492,0.1436161995,
419.9555054,0.1424771994,
419.0307922,0.1423479468,
417.9517822,0.1427199841,
417.0267639,0.1434554905,
415.9473877,0.1449547708,
415.0220642,0.1470149308,
413.9423218,0.1502257437,
413.0166626,0.1529930085,
411.936554,0.1564705223,
411.0105896,0.1594656259,
409.9301453,0.1638736725,
409.0038757,0.1679721028,
407.9230347,0.1728737503,
406.99646,0.1773009002,
406.0697632,0.1812828332,
404.9884033,0.1872213334,
404.0613708,0.1926416755,
402.9796753,0.1988956928,
402.0523682,0.2036978602,
400.9703064,0.2092125267,
400.0426941,0.2139721811,
398.9602661,0.2202664912,
398.0323486,0.2249623388,
396.949585,0.2307850271,
396.0213623,0.2357216477,
394.9382629,0.2433307171,
394.0097351,0.2503262162,
392.9263,0.2587482035,
391.997467,0.2669757903,
391.068512,0.2725931406,
389.9845886,0.281681329,
389.0553284,0.2903007865,
387.9710388,0.2987559736,
387.0415039,0.3054117262,
385.9568481,0.3124520183,
385.0270386,0.3183685839,
383.9420471,0.3267529309,
383.0119324,0.3323517442,
381.9266357,0.3397813141,
380.9962158,0.346095413,
380.0656738,0.3511727452,
378.9798889,0.3590756953,
378.0490723,0.3653063476,
376.9629517,0.3702946007,
376.0318298,0.37597242,
374.9453735,0.3826178312,
374.0139771,0.3881700039,
372.9271851,0.395016104,
371.9955139,0.4001723528,
371.0637207,0.4056887627,
369.9764709,0.4109215438,
369.0443726,0.4158405066,
367.9567871,0.4219852686,
367.0244446,0.4259272814,
365.9365234,0.4307197034,
365.0039063,0.4345827103,
364.0711365,0.4387538731,
362.9827576,0.4430479705,
362.0497437,0.4465029538,
360.9610291,0.4480008781,
360.0277405,0.4525126517,
358.9387207,0.4570159316,
358.0051575,0.461107254,
357.0714417,0.4638614655,
355.9819641,0.4688094854,
355.0480042,0.472632736,
353.9582214,0.4771710932,
353.0239868,0.4807934761,
351.9338989,0.4852684736,
350.9993896,0.4892640114,
350.0647888,0.4926206768,

