38,,
Wavelength (nm),Abs,
649.9767456,0.01004489977,
648.953125,0.01006097998,
647.9291992,0.009731112979,
647.0513306,0.01018789876,
646.0268555,0.009779375046,
645.0020752,0.01028052717,
643.9769897,0.01028877031,
642.9515991,0.009646330029,
642.0724487,0.00978903845,
641.0465088,0.01045258529,
640.0202637,0.01041148696,
638.9937134,0.01015941147,
637.9668579,0.01049801055,
636.9396973,0.01057770848,
636.059021,0.01059606392,
635.031311,0.01048620977,
634.0032959,0.01073924452,
632.9749756,0.01050920226,
631.9463501,0.0106458012,
631.0643921,0.01020854246,
630.0352173,0.01045576762,
629.0057983,0.01050681528,
627.9760132,0.01018731575,
626.9459229,0.01022105198,
626.0628052,0.01036532875,
625.0321655,0.01037794817,
624.0012817,0.01004230324,
622.9700928,0.01019486785,
621.9385986,0.009965378791,
621.0541992,0.0100059323,
620.0221558,0.01023955084,
618.9898071,0.01018087566,
617.9572144,0.01007732656,
617.0718384,0.01033775788,
616.0386963,0.01001763996,
615.005249,0.01021355204,
613.9714966,0.00980635453,
612.937439,0.01029704046,
612.0509033,0.01004235633,
611.0162964,0.01028861199,
609.9814453,0.01047904976,
608.9462891,0.01072823256,
608.0587769,0.01084672101,
607.0231323,0.01067195926,
605.9871216,0.01039764658,
604.9508667,0.01076944172,
604.062439,0.01065779291,
603.0256348,0.01078791078,
601.9885864,0.01079252828,
600.9511719,0.01087204088,
600.0618286,0.01076933555,
599.0239258,0.01099611726,
597.9857788,0.01088833809,
596.9473267,0.01111276541,
596.0569458,0.01134039182,
595.0180054,0.01123056188,
593.9787598,0.01109170634,
592.939209,0.01075813733,
592.0479736,0.01126387436,
591.0078735,0.01177075971,
589.9675293,0.01141043752,
588.9269409,0.01151422597,
588.03479,0.01208586339,
586.9936523,0.01175934914,
585.9522095,0.01156292576,
585.0593872,0.01191581786,
584.0174561,0.01173684932,
582.9752808,0.01173942909,
581.9328003,0.01218246575,
581.0390015,0.01158738416,
579.9960327,0.01143504679,
578.9527588,0.01160341594,
578.0583496,0.01112179551,
577.0145874,0.01156380307,
575.97052,0.01127888449,
574.9262085,0.0115730809,
574.0308838,0.01173286047,
572.986084,0.01137756556,
571.940979,0.01180187892,
571.0449829,0.01199194416,
569.9993896,0.01151866466,
568.9535522,0.011578531,
568.0568848,0.01184728649,
567.0105591,0.01165148802,
565.9639282,0.01198936347,
565.0665894,0.01200980041,
564.0194702,0.01198161952,
562.9721069,0.01183481049,
562.0741577,0.01185840555,
561.0262451,0.01212661527,
559.9781494,0.01174658351,
558.9297485,0.01206861716,
558.0308838,0.01208264288,
556.9819946,0.01213939302,
555.9328003,0.01223472878,
555.0333252,0.01187080331,
553.9837036,0.01202531531,
552.9337769,0.01246960275,
552.0336304,0.01216468215,
550.9832764,0.01198305655,
549.9326172,0.01218882855,
549.0318604,0.01198946964,
547.9807129,0.01210973971,
546.9293213,0.01208951045,
546.0278931,0.01205778401,
544.9760742,0.01213106047,
544.0742188,0.01195354667,
543.0219116,0.01206454448,
541.9692993,0.01170339435,
541.0668335,0.01217429247,
540.0137939,0.01241957583,
538.9604492,0.01230268274,
538.057373,0.01225693524,
537.00354,0.01198446658,
535.9495239,0.01223424915,
535.0458374,0.01195610128,
533.991272,0.01188817527,
532.9365234,0.01281424798,
532.0321655,0.01218752377,
530.9769287,0.01195554249,
530.0722656,0.01182837225,
529.0165405,0.01189535856,
527.9605713,0.01261289697,
527.0552368,0.01239120867,
525.9988403,0.01226992905,
524.9421387,0.01240588538,
524.0361938,0.01204439718,
522.9790649,0.01205536257,
522.0727539,0.01174684893,
521.0151978,0.01174286008,
519.9573364,0.01111730747,
519.050415,0.01091100648,
517.9921265,0.01057619695,
516.9335938,0.009726082906,
516.026062,0.009507557377,
514.967041,0.009235962294,
514.0591431,0.008864262141,
512.9996948,0.0089359181,
511.940033,0.009577731602,
511.0315247,0.009693973698,
509.9713745,0.01011698972,
509.0625,0.01077989675,
508.0019226,0.01079292595,
506.9411011,0.01130903885,
506.0316162,0.01150675677,
504.9703674,0.01181693468,
504.0605164,0.01162790321,
502.9988098,0.01203071792,
501.9368591,0.01223454252,
501.0264282,0.0123071298,
499.9640198,0.01209773496,
499.0532227,0.01218432933,
497.990387,0.01209062804,
496.9273376,0.01225427259,
496.0159607,0.01233871374,
494.9524536,0.01221436076,
494.0407104,0.01216854248,
492.9767761,0.01189464051,
492.0646362,0.01174929645,
491.0002747,0.01221215073,
489.9356689,0.01191472728,
489.0229797,0.0117065059,
487.9579468,0.0115875965,
487.0448914,0.01157587301,
485.9794617,0.01135739684,
485.0660095,0.01121783722,
484.0001526,0.01165640634,
482.934021,0.01169108134,
482.02005,0.01183701772,
480.9535217,0.01168661378,
480.0391541,0.01174793951,
478.972229,0.01198100764,
478.0574951,0.0124475453,
476.9901428,0.0126261944,
476.0750732,0.01275783684,
475.0072632,0.01314747985,
473.93927,0.01361890603,
473.0236511,0.01395965368,
471.9552307,0.01434039697,
471.0392456,0.01478923019,
469.9703979,0.01546365861,
469.0540771,0.01613862626,
467.9848328,0.01709188335,
467.0681458,0.01794713736,
465.9984741,0.01933186129,
464.9285889,0.02073795907,
464.0113831,0.0225489419,
462.9410706,0.02564594895,
462.0234985,0.02849464491,
460.9528198,0.0328207612,
460.0349121,0.03634766489,
458.9638062,0.04226757959,
458.0455322,0.05072158575,
456.9740295,0.06012973189,
456.0554199,0.07048812509,
454.9835205,0.08364120126,
454.0645752,0.09619788826,
452.9922791,0.1183823422,
452.072998,0.1382994056,
451.0003052,0.1646044403,
449.9273682,0.1957269609,
449.0075684,0.2195607573,
447.9342651,0.2511731088,
447.0141296,0.2794434428,
445.9404297,0.3035239875,
445.019928,0.3218406737,
443.9458618,0.3328477442,
443.0250244,0.3355388641,
441.9505615,0.3311787844,
441.0294189,0.3230763376,
439.9545288,0.3112496138,
439.0330505,0.3002037704,
437.9577942,0.2888428271,
437.0360107,0.2813236415,
435.9603577,0.273688525,
435.0382385,0.268160522,
433.9622192,0.2619386613,
433.0397339,0.2559231222,
431.9633484,0.2479424775,
431.0405579,0.2381208837,
429.9637756,0.2263969928,
429.0406494,0.2137155086,
427.963501,0.2013128847,
427.0400696,0.1914013922,
425.9625549,0.1792880446,
425.0387878,0.1687774658,
423.9608765,0.1588750929,
423.0368042,0.1514950097,
421.9585571,0.1440812945,
421.0341492,0.1388765723,
419.9555054,0.1337462813,
419.0307922,0.1298429668,
417.9517822,0.1264903843,
417.0267639,0.1247593686,
415.9473877,0.1234276593,
415.0220642,0.1229051426,
413.9423218,0.123486653,
413.0166626,0.1243240833,
411.936554,0.1260568947,
411.0105896,0.1275539696,
409.9301453,0.1309065819,
409.0038757,0.1345841736,
407.9230347,0.1392755061,
406.99646,0.1434970647,
406.0697632,0.1478403062,
404.9884033,0.1549421698,
404.0613708,0.1613824069,
402.9796753,0.1687710434,
402.0523682,0.1742756814,
400.9703064,0.1800626814,
400.0426941,0.1854167581,
398.9602661,0.1911691725,
398.0323486,0.1953676194,
396.949585,0.2003493905,
396.0213623,0.2040962577,
394.9382629,0.2105590403,
394.0097351,0.2171865851,
392.9263,0.225298062,
391.997467,0.2331453711,
391.068512,0.2390412241,
389.9845886,0.2482336015,
389.0553284,0.2587653399,
387.9710388,0.2687101364,
387.0415039,0.2765727341,
385.9568481,0.2847723961,
385.0270386,0.2924636006,
383.9420471,0.3024295866,
383.0119324,0.3104239106,
381.9266357,0.3197589815,
380.9962158,0.3274230063,
380.0656738,0.3348337412,
378.9798889,0.3456038833,
378.0490723,0.3539275825,
376.9629517,0.3624936938,
376.0318298,0.3697839081,
374.9453735,0.3793426752,
374.0139771,0.3875947893,
372.9271851,0.3963361084,
371.9955139,0.403404355,
371.0637207,0.4096359611,
369.9764709,0.4171918035,
369.0443726,0.423501879,
367.9567871,0.4303143322,
367.0244446,0.4348989129,
365.9365234,0.43949911,
365.0039063,0.4427654147,
364.0711365,0.4463237226,
362.9827576,0.4490562677,
362.0497437,0.4506877363,
360.9610291,0.4530026317,
360.0277405,0.4551703036,
358.9387207,0.4574153423,
358.0051575,0.4595210254,
357.0714417,0.4620112181,
355.9819641,0.4645726383,
355.0480042,0.4668135345,
353.9582214,0.469337821,
353.0239868,0.4721056223,
351.9338989,0.4745689631,
350.9993896,0.4772806168,
350.0647888,0.4798280299,

