40,,
Wavelength (nm),Abs,
649.9767456,0.008971248753,
648.953125,0.009059785865,
647.9291992,0.00891884882,
647.0513306,0.008907988667,
646.0268555,0.00898689311,
645.0020752,0.00902222842,
643.9769897,0.009083177894,
642.9515991,0.00866283197,
642.0724487,0.008926934563,
641.0465088,0.009448954836,
640.0202637,0.00951067917,
638.9937134,0.008515159599,
637.9668579,0.009054764174,
636.9396973,0.009630423039,
636.059021,0.008983087726,
635.031311,0.009102818556,
634.0032959,0.009444298223,
632.9749756,0.009036183357,
631.9463501,0.009172875434,
631.0643921,0.008825532161,
630.0352173,0.008922019042,
629.0057983,0.008777455427,
627.9760132,0.008613848127,
626.9459229,0.008500561118,
626.0628052,0.008896336891,
625.0321655,0.008677462116,
624.0012817,0.008539262228,
622.9700928,0.008488181047,
621.9385986,0.008551458828,
621.0541992,0.008495545946,
620.0221558,0.008734454401,
618.9898071,0.008623909205,
617.9572144,0.008701388724,
617.0718384,0.008711925708,
616.0386963,0.008754528128,
615.005249,0.008921305649,
613.9714966,0.008414038457,
612.937439,0.008869361132,
612.0509033,0.008556686342,
611.0162964,0.009005920961,
609.9814453,0.009162881412,
608.9462891,0.008864869364,
608.0587769,0.009144295938,
607.0231323,0.008927304298,
605.9871216,0.008991095237,
604.9508667,0.00908775162,
604.062439,0.009087037295,
603.0256348,0.008961893618,
601.9885864,0.009378959425,
600.9511719,0.00961398799,
600.0618286,0.009326853789,
599.0239258,0.009115877561,
597.9857788,0.00949551817,
596.9473267,0.009551004507,
596.0569458,0.009591175243,
595.0180054,0.009671977721,
593.9787598,0.009593106806,
592.939209,0.00913900882,
592.0479736,0.009334550239,
591.0078735,0.009696011432,
589.9675293,0.00939237047,
588.9269409,0.009650988504,
588.03479,0.009858305566,
586.9936523,0.009322701953,
585.9522095,0.009754806757,
585.0593872,0.009542219341,
584.0174561,0.009378483519,
582.9752808,0.009560055099,
581.9328003,0.009915983304,
581.0390015,0.009720603935,
579.9960327,0.009681320749,
578.9527588,0.009968291968,
578.0583496,0.009791051038,
577.0145874,0.01001883205,
575.97052,0.01019778289,
574.9262085,0.01002868731,
574.0308838,0.01033362187,
572.986084,0.01000828948,
571.940979,0.0103892684,
571.0449829,0.01027586218,
569.9993896,0.009952903725,
568.9535522,0.009983814321,
568.0568848,0.01023178548,
567.0105591,0.01048066746,
565.9639282,0.01046149526,
565.0665894,0.01042994112,
564.0194702,0.01042591035,
562.9721069,0.01063243113,
562.0741577,0.01054243278,
561.0262451,0.01069305092,
559.9781494,0.01034165453,
558.9297485,0.01073738746,
558.0308838,0.01087766793,
556.9819946,0.0106301764,
555.9328003,0.01096853241,
555.0333252,0.01052251551,
553.9837036,0.01087668631,
552.9337769,0.01075513847,
552.0336304,0.01063813455,
550.9832764,0.01086171623,
549.9326172,0.01086829882,
549.0318604,0.01076087076,
547.9807129,0.01107094064,
546.9293213,0.01082511712,
546.0278931,0.01072414685,
544.9760742,0.01090235356,
544.0742188,0.01088446286,
543.0219116,0.01098342612,
541.9692993,0.01076782309,
541.0668335,0.01067851204,
540.0137939,0.01088494062,
538.9604492,0.01113228593,
538.057373,0.01117066387,
537.00354,0.01121467631,
535.9495239,0.01100177225,
535.0458374,0.01090200804,
533.991272,0.01099781599,
532.9365234,0.01113539282,
532.0321655,0.01097742654,
530.9769287,0.01085086074,
530.0722656,0.01088878978,
529.0165405,0.01100957766,
527.9605713,0.01106873713,
527.0552368,0.01117799431,
525.9988403,0.01127139293,
524.9421387,0.01134557277,
524.0361938,0.01118928287,
522.9790649,0.01147964504,
522.0727539,0.01145075448,
521.0151978,0.01157167181,
519.9573364,0.0109099187,
519.050415,0.01089070085,
517.9921265,0.01053736731,
516.9335938,0.01016879175,
516.026062,0.009949937463,
514.967041,0.009945593774,
514.0591431,0.01007936615,
512.9996948,0.00989334099,
511.940033,0.01027906965,
511.0315247,0.01046388224,
509.9713745,0.01077440381,
509.0625,0.0111480616,
508.0019226,0.01128552575,
506.9411011,0.01164590381,
506.0316162,0.01211602148,
504.9703674,0.01200953498,
504.0605164,0.0120919589,
502.9988098,0.01231727563,
501.9368591,0.0125359688,
501.0264282,0.01236931514,
499.9640198,0.01232297439,
499.0532227,0.01243068371,
497.990387,0.0121838497,
496.9273376,0.01204069797,
496.0159607,0.01217559725,
494.9524536,0.01229093876,
494.0407104,0.01230657008,
492.9767761,0.01223643217,
492.0646362,0.01178759616,
491.0002747,0.01171171758,
489.9356689,0.01184497215,
489.0229797,0.01167767961,
487.9579468,0.01132856775,
487.0448914,0.01127620135,
485.9794617,0.01140305027,
485.0660095,0.01135008968,
484.0001526,0.01111122593,
482.934021,0.011183572,
482.02005,0.01118181925,
480.9535217,0.01134451013,
480.0391541,0.01139486488,
478.972229,0.01143789105,
478.0574951,0.01172325946,
476.9901428,0.01183244307,
476.0750732,0.01187394187,
475.0072632,0.01205786411,
473.93927,0.01219005324,
473.0236511,0.01240178291,
471.9552307,0.01232739538,
471.0392456,0.01231871359,
469.9703979,0.01247543748,
469.0540771,0.01269903407,
467.9848328,0.01271300111,
467.0681458,0.01272342354,
465.9984741,0.01299390104,
464.9285889,0.01301409304,
464.0113831,0.0130153466,
462.9410706,0.01299606171,
462.0234985,0.01311402302,
460.9528198,0.01341643371,
460.0349121,0.01316821203,
458.9638062,0.01332310773,
458.0455322,0.01361089293,
456.9740295,0.01383454073,
456.0554199,0.01371569,
454.9835205,0.01406290289,
454.0645752,0.01418043207,
452.9922791,0.01457199641,
452.072998,0.01492466405,
451.0003052,0.01571053825,
449.9273682,0.01637691259,
449.0075684,0.01698470674,
447.9342651,0.01820596121,
447.0141296,0.02003417909,
445.9404297,0.02179494314,
445.019928,0.02461783215,
443.9458618,0.02875728905,
443.0250244,0.03317607939,
441.9505615,0.0409236066,
441.0294189,0.04960112646,
439.9545288,0.06476189196,
439.0330505,0.08360184729,
437.9577942,0.1145195737,
437.0360107,0.1508643478,
435.9603577,0.2147513479,
435.0382385,0.2920383215,
433.9622192,0.4108573496,
433.0397339,0.5230167508,
431.9633484,0.6811859012,
431.0405579,0.8384374976,
429.9637756,1.001654744,
429.0406494,1.122687936,
427.963501,1.193208933,
427.0400696,1.216165304,
425.9625549,1.20174098,
425.0387878,1.155996084,
423.9608765,1.088204741,
423.0368042,1.021518588,
421.9585571,0.947581172,
421.0341492,0.8880645633,
419.9555054,0.8118727803,
419.0307922,0.7509341836,
417.9517822,0.6867340207,
417.0267639,0.6468496323,
415.9473877,0.6033514738,
415.0220642,0.5607259274,
413.9423218,0.5233156681,
413.0166626,0.4940311015,
411.936554,0.4680120349,
411.0105896,0.4505366385,
409.9301453,0.4264515638,
409.0038757,0.4095808864,
407.9230347,0.3936582208,
406.99646,0.3831180036,
406.0697632,0.3751300275,
404.9884033,0.3644052148,
404.0613708,0.3579226732,
402.9796753,0.3518486619,
402.0523682,0.348698765,
400.9703064,0.3458675444,
400.0426941,0.3438694179,
398.9602661,0.342993468,
398.0323486,0.3432736695,
396.949585,0.3441078067,
396.0213623,0.3451558352,
394.9382629,0.3474813104,
394.0097351,0.3499141037,
392.9263,0.3535118699,
391.997467,0.357429564,
391.068512,0.3601625264,
389.9845886,0.3648720086,
389.0553284,0.3706718087,
387.9710388,0.3774148524,
387.0415039,0.3827700615,
385.9568481,0.3887894154,
385.0270386,0.3947266936,
383.9420471,0.4031799734,
383.0119324,0.4100436568,
381.9266357,0.418314904,
380.9962158,0.4243703485,
380.0656738,0.4307084978,
378.9798889,0.4396643341,
378.0490723,0.4465149343,
376.9629517,0.4530582428,
376.0318298,0.4606207311,
374.9453735,0.4692390561,
374.0139771,0.4773532152,
372.9271851,0.4874325693,
371.9955139,0.4951457083,
371.0637207,0.5039955378,
369.9764709,0.5143930912,
369.0443726,0.5247673392,
367.9567871,0.5378641486,
367.0244446,0.547362566,
365.9365234,0.5592841506,
365.0039063,0.5685875416,
364.0711365,0.5796140432,
362.9827576,0.5898973942,
362.0497437,0.5969620943,
360.9610291,0.6035816669,
360.0277405,0.6103823781,
358.9387207,0.6172103286,
358.0051575,0.6225184202,
357.0714417,0.6266261935,
355.9819641,0.6317968965,
355.0480042,0.6349949241,
353.9582214,0.6387314796,
353.0239868,0.6422920823,
351.9338989,0.6458672881,
350.9993896,0.6494873762,
350.0647888,0.6529939175,

