49,,
Wavelength (nm),Abs,
649.9767456,0.008515978232,
648.953125,0.008765701205,
647.9291992,0.00844198931,
647.0513306,0.008831000887,
646.0268555,0.008303574286,
645.0020752,0.008543248288,
643.9769897,0.00867149327,
642.9515991,0.008237984963,
642.0724487,0.008436050266,
641.0465088,0.008781760931,
640.0202637,0.008795285597,
638.9937134,0.008487336338,
637.9668579,0.009089522064,
636.9396973,0.009199763648,
636.059021,0.009119974449,
635.031311,0.009083416313,
634.0032959,0.009142682888,
632.9749756,0.009126345627,
631.9463501,0.009501233697,
631.0643921,0.009276579134,
630.0352173,0.009453848936,
629.0057983,0.009393296205,
627.9760132,0.009418108501,
626.9459229,0.009551931173,
626.0628052,0.009647811763,
625.0321655,0.009435753338,
624.0012817,0.009169252589,
622.9700928,0.009464404546,
621.9385986,0.009657154791,
621.0541992,0.009434140287,
620.0221558,0.0096673714,
618.9898071,0.00970768556,
617.9572144,0.009802700952,
617.0718384,0.01028476842,
616.0386963,0.009879596531,
615.005249,0.01038783696,
613.9714966,0.00997260958,
612.937439,0.01005870197,
612.0509033,0.01024774089,
611.0162964,0.01030968502,
609.9814453,0.01063648984,
608.9462891,0.0106407078,
608.0587769,0.01089985855,
607.0231323,0.01073083375,
605.9871216,0.01081442181,
604.9508667,0.01098289527,
604.062439,0.01107155159,
603.0256348,0.01124121435,
601.9885864,0.01140780654,
600.9511719,0.01148416288,
600.0618286,0.01116338652,
599.0239258,0.0113267079,
597.9857788,0.01153280679,
596.9473267,0.01168071106,
596.0569458,0.01186899375,
595.0180054,0.01177230198,
593.9787598,0.01182861254,
592.939209,0.01167706773,
592.0479736,0.01175110415,
591.0078735,0.0119140083,
589.9675293,0.0120008057,
588.9269409,0.01194194611,
588.03479,0.01248342916,
586.9936523,0.01159046777,
585.9522095,0.01205387246,
585.0593872,0.01216055639,
584.0174561,0.01225970406,
582.9752808,0.0122829238,
581.9328003,0.01246901695,
581.0390015,0.01219806634,
579.9960327,0.01230137795,
578.9527588,0.01267597917,
578.0583496,0.01235796884,
577.0145874,0.01250234526,
575.97052,0.01253700722,
574.9262085,0.01262478251,
574.0308838,0.01291375887,
572.986084,0.01240234263,
571.940979,0.01284248289,
571.0449829,0.01295018755,
569.9993896,0.01262190379,
568.9535522,0.01268669311,
568.0568848,0.01289525256,
567.0105591,0.01289279852,
565.9639282,0.01298512612,
565.0665894,0.01290421188,
564.0194702,0.0128133148,
562.9721069,0.01282341965,
562.0741577,0.01293434668,
561.0262451,0.01299763564,
559.9781494,0.01261377614,
558.9297485,0.01314921491,
558.0308838,0.01298664697,
556.9819946,0.01294722781,
555.9328003,0.01324098278,
555.0333252,0.0128705604,
553.9837036,0.01317013334,
552.9337769,0.01307093725,
552.0336304,0.01292149257,
550.9832764,0.01316815894,
549.9326172,0.01309905574,
549.0318604,0.01297157723,
547.9807129,0.01306960359,
546.9293213,0.01312760264,
546.0278931,0.01302713621,
544.9760742,0.01318542287,
544.0742188,0.01313059125,
543.0219116,0.01314945426,
541.9692993,0.01293679979,
541.0668335,0.01309732161,
540.0137939,0.01328138914,
538.9604492,0.01324797515,
538.057373,0.01325592771,
537.00354,0.01346486714,
535.9495239,0.01327113993,
535.0458374,0.01323604584,
533.991272,0.01337473374,
532.9365234,0.01371542271,
532.0321655,0.01337088924,
530.9769287,0.0133911781,
530.0722656,0.01350508071,
529.0165405,0.0134665221,
527.9605713,0.0137152886,
527.0552368,0.01361949369,
525.9988403,0.01387575082,
524.9421387,0.01389074512,
524.0361938,0.01351498812,
522.9790649,0.01364211831,
522.0727539,0.01347031444,
521.0151978,0.01366840396,
519.9573364,0.01306061354,
519.050415,0.01276404783,
517.9921265,0.01249842811,
516.9335938,0.01217256207,
516.026062,0.01226846408,
514.967041,0.01212219708,
514.0591431,0.01249408629,
512.9996948,0.01275181212,
511.940033,0.01370420121,
511.0315247,0.01453374512,
509.9713745,0.01527389139,
509.0625,0.0160950236,
508.0019226,0.01687497459,
506.9411011,0.01801577397,
506.0316162,0.01888474636,
504.9703674,0.01964234561,
504.0605164,0.02002718486,
502.9988098,0.02116595022,
501.9368591,0.02201187238,
501.0264282,0.02284078114,
499.9640198,0.02378897369,
499.0532227,0.02478210069,
497.990387,0.02555056103,
496.9273376,0.02690210938,
496.0159607,0.02776033804,
494.9524536,0.02903149463,
494.0407104,0.03019703552,
492.9767761,0.03185149655,
492.0646362,0.03293284029,
491.0002747,0.03441862762,
489.9356689,0.03607093915,
489.0229797,0.03783068806,
487.9579468,0.03933528438,
487.0448914,0.0408767648,
485.9794617,0.04316703975,
485.0660095,0.04533461481,
484.0001526,0.04763495177,
482.934021,0.05036883429,
482.02005,0.05283271149,
480.9535217,0.05570633709,
480.0391541,0.05851741135,
478.972229,0.06178885326,
478.0574951,0.06499901414,
476.9901428,0.06798367947,
476.0750732,0.07027254999,
475.0072632,0.07356997579,
473.93927,0.07757063955,
473.0236511,0.0807729885,
471.9552307,0.08445096761,
471.0392456,0.08762599528,
469.9703979,0.09158951044,
469.0540771,0.09632172436,
467.9848328,0.1017718762,
467.0681458,0.10593687,
465.9984741,0.11097195,
464.9285889,0.1159441695,
464.0113831,0.1201141924,
462.9410706,0.1261623055,
462.0234985,0.1300228089,
460.9528198,0.13457793,
460.0349121,0.13712731,
458.9638062,0.1403392255,
458.0455322,0.1438363045,
456.9740295,0.1465805769,
456.0554199,0.1482415199,
454.9835205,0.1503821313,
454.0645752,0.1516462862,
452.9922791,0.1522794813,
452.072998,0.1526215672,
451.0003052,0.1526696831,
449.9273682,0.1521444172,
449.0075684,0.1511053443,
447.9342651,0.1492511481,
447.0141296,0.1472374499,
445.9404297,0.1446760595,
445.019928,0.1420661211,
443.9458618,0.1393750459,
443.0250244,0.1369758099,
441.9505615,0.1341635436,
441.0294189,0.1321962327,
439.9545288,0.1301633865,
439.0330505,0.1288263798,
437.9577942,0.1274055839,
437.0360107,0.1267307401,
435.9603577,0.1258772314,
435.0382385,0.125737071,
433.9622192,0.1258385628,
433.0397339,0.1258985102,
431.9633484,0.1264167875,
431.0405579,0.1270229667,
429.9637756,0.1281546801,
429.0406494,0.1295241416,
427.963501,0.1305584759,
427.0400696,0.1316380352,
425.9625549,0.1335039288,
425.0387878,0.134823963,
423.9608765,0.1370556951,
423.0368042,0.1388634592,
421.9585571,0.1408423781,
421.0341492,0.1426926553,
419.9555054,0.1450892389,
419.0307922,0.1471627653,
417.9517822,0.1495389938,
417.0267639,0.1510805637,
415.9473877,0.1532713622,
415.0220642,0.155537039,
413.9423218,0.1583437622,
413.0166626,0.1603432,
411.936554,0.1629007608,
411.0105896,0.1648031622,
409.9301453,0.1678989083,
409.0038757,0.1703435779,
407.9230347,0.1735167652,
406.99646,0.1760085523,
406.0697632,0.1781344861,
404.9884033,0.1814079285,
404.0613708,0.1842597723,
402.9796753,0.1875430942,
402.0523682,0.1902467757,
400.9703064,0.1931068152,
400.0426941,0.196201995,
398.9602661,0.2005827427,
398.0323486,0.2037955523,
396.949585,0.2079114467,
396.0213623,0.2111560702,
394.9382629,0.2159330547,
394.0097351,0.2203489095,
392.9263,0.2250507325,
391.997467,0.229891479,
391.068512,0.2328684032,
389.9845886,0.2377138883,
389.0553284,0.2429189086,
387.9710388,0.2481757849,
387.0415039,0.2524891794,
385.9568481,0.256562233,
385.0270386,0.2604051828,
383.9420471,0.2653546631,
383.0119324,0.2690406144,
381.9266357,0.2731743753,
380.9962158,0.2764135599,
380.0656738,0.2794263959,
378.9798889,0.2837278843,
378.0490723,0.2870312333,
376.9629517,0.2897838354,
376.0318298,0.292794317,
374.9453735,0.29694736,
374.0139771,0.3001144528,
372.9271851,0.304486692,
371.9955139,0.3079910874,
371.0637207,0.3117772341,
369.9764709,0.3160010576,
369.0443726,0.3200719059,
367.9567871,0.3257782757,
367.0244446,0.329387635,
365.9365234,0.3342477977,
365.0039063,0.3378216326,
364.0711365,0.3422546983,
362.9827576,0.3468914628,
362.0497437,0.3505060673,
360.9610291,0.3538743854,
360.0277405,0.3579850197,
358.9387207,0.3626597822,
358.0051575,0.3670779467,
357.0714417,0.3706838489,
355.9819641,0.3757833838,
355.0480042,0.3792414367,
353.9582214,0.3839084506,
353.0239868,0.3880031407,
351.9338989,0.3919922411,
350.9993896,0.3957698345,
350.0647888,0.3991801143,

