52,,
Wavelength (nm),Abs,
649.9767456,0.01062709931,
648.953125,0.01107064821,
647.9291992,0.01045189612,
647.0513306,0.0104614161,
646.0268555,0.01033325121,
645.0020752,0.01058611739,
643.9769897,0.01041686907,
642.9515991,0.01003242191,
642.0724487,0.01002709754,
641.0465088,0.01048735064,
640.0202637,0.01096051559,
638.9937134,0.009877901524,
637.9668579,0.01051089913,
636.9396973,0.01071868092,
636.059021,0.01071058866,
635.031311,0.01079932135,
634.0032959,0.01085882355,
632.9749756,0.01077090111,
631.9463501,0.01104013901,
631.0643921,0.01054585446,
630.0352173,0.01097673643,
629.0057983,0.01120312139,
627.9760132,0.01096465718,
626.9459229,0.01095196698,
626.0628052,0.01113286987,
625.0321655,0.01111555472,
624.0012817,0.01109903585,
622.9700928,0.01086575072,
621.9385986,0.0110004181,
621.0541992,0.01066829823,
620.0221558,0.01102893427,
618.9898071,0.01076896396,
617.9572144,0.01116736978,
617.0718384,0.01130359247,
616.0386963,0.01111972332,
615.005249,0.01130609028,
613.9714966,0.01102781855,
612.937439,0.01149482187,
612.0509033,0.01115921605,
611.0162964,0.01151632611,
609.9814453,0.01168105658,
608.9462891,0.0116800461,
608.0587769,0.01183129847,
607.0231323,0.01180533692,
605.9871216,0.01163005643,
604.9508667,0.01188516896,
604.062439,0.01209741551,
603.0256348,0.01197834685,
601.9885864,0.01212666836,
600.9511719,0.01248033904,
600.0618286,0.01201405842,
599.0239258,0.01176860463,
597.9857788,0.01224979851,
596.9473267,0.01254060492,
596.0569458,0.0128630409,
595.0180054,0.01245604362,
593.9787598,0.01266792975,
592.939209,0.01243057754,
592.0479736,0.01245351322,
591.0078735,0.01255091559,
589.9675293,0.01254161727,
588.9269409,0.01280824933,
588.03479,0.01296181604,
586.9936523,0.01246595383,
585.9522095,0.01282352675,
585.0593872,0.01297083031,
584.0174561,0.01251745131,
582.9752808,0.01291309204,
581.9328003,0.01291250531,
581.0390015,0.01303289831,
579.9960327,0.01290871855,
578.9527588,0.01354551222,
578.0583496,0.01327920053,
577.0145874,0.01314708032,
575.97052,0.01325478032,
574.9262085,0.01353312004,
574.0308838,0.01363581419,
572.986084,0.01357574388,
571.940979,0.01383267064,
571.0449829,0.01384432241,
569.9993896,0.01356952172,
568.9535522,0.01339737233,
568.0568848,0.01394195762,
567.0105591,0.01376054902,
565.9639282,0.01410790533,
565.0665894,0.01398095861,
564.0194702,0.01386281569,
562.9721069,0.01396133751,
562.0741577,0.01407453418,
561.0262451,0.01436586864,
559.9781494,0.01390408166,
558.9297485,0.01430128329,
558.0308838,0.01439845935,
556.9819946,0.01425837446,
555.9328003,0.01455812994,
555.0333252,0.01430767681,
553.9837036,0.01428277045,
552.9337769,0.01461209916,
552.0336304,0.01477369666,
550.9832764,0.01489310525,
549.9326172,0.01487253234,
549.0318604,0.01439538226,
547.9807129,0.01464058459,
546.9293213,0.01461362466,
546.0278931,0.0147485761,
544.9760742,0.01496107504,
544.0742188,0.01497342624,
543.0219116,0.01485479902,
541.9692993,0.01442869753,
541.0668335,0.01506684069,
540.0137939,0.01519884914,
538.9604492,0.01529421564,
538.057373,0.01525756251,
537.00354,0.01516496576,
535.9495239,0.01541559212,
535.0458374,0.01531518437,
533.991272,0.01516467053,
532.9365234,0.01581525244,
532.0321655,0.01579844765,
530.9769287,0.01563319378,
530.0722656,0.01564594172,
529.0165405,0.0156814456,
527.9605713,0.0162433628,
527.0552368,0.01622194424,
525.9988403,0.0161991585,
524.9421387,0.01645772345,
524.0361938,0.01624368504,
522.9790649,0.01654925197,
522.0727539,0.01627523452,
521.0151978,0.01629861444,
519.9573364,0.01592957787,
519.050415,0.01610131003,
517.9921265,0.01620614529,
516.9335938,0.01635495014,
516.026062,0.01625779271,
514.967041,0.01650192589,
514.0591431,0.01709433272,
512.9996948,0.01737937517,
511.940033,0.01876655966,
511.0315247,0.01945697144,
509.9713745,0.02043499425,
509.0625,0.02148321643,
508.0019226,0.02224863507,
506.9411011,0.02350461297,
506.0316162,0.02450867556,
504.9703674,0.02535293251,
504.0605164,0.02602075599,
502.9988098,0.0272956714,
501.9368591,0.02824807167,
501.0264282,0.02905809134,
499.9640198,0.03019881062,
499.0532227,0.03089959174,
497.990387,0.03186369687,
496.9273376,0.03335440904,
496.0159607,0.03465706855,
494.9524536,0.03564667329,
494.0407104,0.03662467748,
492.9767761,0.03796466067,
492.0646362,0.03914258629,
491.0002747,0.04082128033,
489.9356689,0.04201671481,
489.0229797,0.04317184165,
487.9579468,0.04439937696,
487.0448914,0.04580878839,
485.9794617,0.04743720964,
485.0660095,0.04900060967,
484.0001526,0.05097237974,
482.934021,0.05326085538,
482.02005,0.05484848842,
480.9535217,0.05648843199,
480.0391541,0.05866734311,
478.972229,0.06068651378,
478.0574951,0.06279659271,
476.9901428,0.06480826437,
476.0750732,0.06615514308,
475.0072632,0.06807602197,
473.93927,0.07013814896,
473.0236511,0.07201327384,
471.9552307,0.07368798554,
471.0392456,0.07525570691,
469.9703979,0.07695765048,
469.0540771,0.07874767482,
467.9848328,0.08068236709,
467.0681458,0.08227849007,
465.9984741,0.08385981619,
464.9285889,0.08522327989,
464.0113831,0.08626987785,
462.9410706,0.08754989505,
462.0234985,0.08816806972,
460.9528198,0.0887221247,
460.0349121,0.0889717117,
458.9638062,0.08922599256,
458.0455322,0.08914095908,
456.9740295,0.0888838768,
456.0554199,0.08826965839,
454.9835205,0.08820102364,
454.0645752,0.08766758442,
452.9922791,0.08670917153,
452.072998,0.08614858985,
451.0003052,0.08590011299,
449.9273682,0.08589250594,
449.0075684,0.08548867702,
447.9342651,0.08539230376,
447.0141296,0.08543670177,
445.9404297,0.08543153852,
445.019928,0.08560795337,
443.9458618,0.08589329571,
443.0250244,0.08609704673,
441.9505615,0.08632867038,
441.0294189,0.08680526912,
439.9545288,0.08764024824,
439.0330505,0.08813702315,
437.9577942,0.08901105076,
437.0360107,0.08972130716,
435.9603577,0.09050296247,
435.0382385,0.09131835401,
433.9622192,0.09226539731,
433.0397339,0.09299661219,
431.9633484,0.09396184981,
431.0405579,0.09482305497,
429.9637756,0.09608841687,
429.0406494,0.09713624418,
427.963501,0.09816219658,
427.0400696,0.09893652052,
425.9625549,0.1003629714,
425.0387878,0.1013268605,
423.9608765,0.1027600467,
423.0368042,0.1039403826,
421.9585571,0.105179891,
421.0341492,0.1061394736,
419.9555054,0.1078031734,
419.0307922,0.1089446172,
417.9517822,0.1102731526,
417.0267639,0.1111887544,
415.9473877,0.1123284772,
415.0220642,0.1134651825,
413.9423218,0.11483863,
413.0166626,0.1157592162,
411.936554,0.1169482544,
411.0105896,0.1176477,
409.9301453,0.1190376282,
409.0038757,0.120377779,
407.9230347,0.1219687834,
406.99646,0.123292096,
406.0697632,0.124555245,
404.9884033,0.126342684,
404.0613708,0.1283014417,
402.9796753,0.130322665,
402.0523682,0.1323728412,
400.9703064,0.1344967037,
400.0426941,0.1367162764,
398.9602661,0.1397587508,
398.0323486,0.1420240551,
396.949585,0.1447684318,
396.0213623,0.1468121707,
394.9382629,0.1496817172,
394.0097351,0.1526368409,
392.9263,0.1552351713,
391.997467,0.1578689218,
391.068512,0.1598237157,
389.9845886,0.1629111171,
389.0553284,0.1654223204,
387.9710388,0.1680769622,
387.0415039,0.1704661101,
385.9568481,0.1727742106,
385.0270386,0.1746086925,
383.9420471,0.1770247966,
383.0119324,0.1791793555,
381.9266357,0.1817067266,
380.9962158,0.1833837181,
380.0656738,0.1850700974,
378.9798889,0.1873095334,
378.0490723,0.1890681386,
376.9629517,0.1913863868,
376.0318298,0.1936797053,
374.9453735,0.1963061988,
374.0139771,0.1988866776,
372.9271851,0.202003777,
371.9955139,0.2043634653,
371.0637207,0.2073812783,
369.9764709,0.2107953876,
369.0443726,0.2138702869,
367.9567871,0.2176233232,
367.0244446,0.2205623388,
365.9365234,0.2241369039,
365.0039063,0.2266672403,
364.0711365,0.2298910022,
362.9827576,0.2325387597,
362.0497437,0.2348644584,
360.9610291,0.2372345328,
360.0277405,0.2400597483,
358.9387207,0.2431361675,
358.0051575,0.245079115,
357.0714417,0.2481315136,
355.9819641,0.251088649,
355.0480042,0.2533899844,
353.9582214,0.2562175691,
353.0239868,0.2590089142,
351.9338989,0.261816889,
350.9993896,0.2641677856,
350.0647888,0.266056776,

